#   radius [cm] density [g/cm3]  temperature [K]
   2.118055e+08   1.959849e+01   2.806273e+07
   1.463201e+09   1.957532e+01   2.804286e+07
   2.714596e+09   1.952211e+01   2.799721e+07
   3.965992e+09   1.943708e+01   2.792418e+07
   5.217387e+09   1.931658e+01   2.782046e+07
   6.468783e+09   1.915527e+01   2.768111e+07
   7.720178e+09   1.893034e+01   2.748568e+07
   8.971573e+09   1.871370e+01   2.729661e+07
   1.022297e+10   1.844609e+01   2.706147e+07
   1.147436e+10   1.812202e+01   2.677448e+07
   1.272576e+10   1.780592e+01   2.649240e+07
   1.397716e+10   1.744430e+01   2.616669e+07
   1.522855e+10   1.702084e+01   2.578113e+07
   1.647995e+10   1.664573e+01   2.543617e+07
   1.773134e+10   1.621226e+01   2.503286e+07
   1.898274e+10   1.576079e+01   2.460745e+07
   2.023413e+10   1.527966e+01   2.414788e+07
   2.148553e+10   1.473758e+01   2.365839e+07
   2.273692e+10   1.373385e+01   2.302825e+07
   2.398832e+10   1.279143e+01   2.242872e+07
   2.523971e+10   1.186781e+01   2.185954e+07
   2.649111e+10   1.106926e+01   2.131507e+07
   2.774251e+10   1.035020e+01   2.079434e+07
   2.899390e+10   9.706818e+00   2.029570e+07
   3.024530e+10   9.133825e+00   1.981758e+07
   3.149669e+10   8.648943e+00   1.937460e+07
   3.274809e+10   8.195924e+00   1.891404e+07
   3.399948e+10   7.865776e+00   1.850815e+07
   3.525088e+10   7.560645e+00   1.807501e+07
   3.650227e+10   7.307784e+00   1.768946e+07
   3.775367e+10   7.058000e+00   1.730756e+07
   3.900507e+10   6.812149e+00   1.694205e+07
   4.025646e+10   6.552781e+00   1.655910e+07
   4.150786e+10   6.295026e+00   1.618496e+07
   4.275925e+10   6.039290e+00   1.581970e+07
   4.401065e+10   5.775812e+00   1.544872e+07
   4.526204e+10   5.535647e+00   1.511500e+07
   4.651344e+10   5.288797e+00   1.477547e+07
   4.776483e+10   5.043355e+00   1.444085e+07
   4.901623e+10   4.807696e+00   1.412196e+07
   5.026762e+10   4.574353e+00   1.380792e+07
   5.151902e+10   4.346489e+00   1.350233e+07
   5.277041e+10   4.122617e+00   1.320243e+07
   5.402181e+10   3.920764e+00   1.293179e+07
   5.527321e+10   3.716447e+00   1.265666e+07
   5.652460e+10   3.514154e+00   1.238233e+07
   5.777600e+10   3.319507e+00   1.211565e+07
   5.902739e+10   3.118498e+00   1.183662e+07
   6.027879e+10   2.939497e+00   1.158452e+07
   6.153018e+10   2.768247e+00   1.133925e+07
   6.278158e+10   2.604555e+00   1.110052e+07
   6.403297e+10   2.448389e+00   1.086826e+07
   6.528437e+10   2.299781e+00   1.064241e+07
   6.653577e+10   2.158433e+00   1.042265e+07
   6.778716e+10   2.024406e+00   1.020896e+07
   6.903856e+10   1.897328e+00   1.000094e+07
   7.028995e+10   1.793867e+00   9.827173e+06
   7.154134e+10   1.664803e+00   9.603097e+06
   7.279274e+10   1.571374e+00   9.435942e+06
   7.404414e+10   1.464511e+00   9.237807e+06
   7.529553e+10   1.363323e+00   9.042988e+06
   7.654692e+10   1.274329e+00   8.865113e+06
   7.779833e+10   1.199349e+00   8.710169e+06
   7.904972e+10   1.109530e+00   8.516132e+06
   8.030111e+10   1.045830e+00   8.373491e+06
   8.155251e+10   9.686522e-01   8.193237e+06
   8.280391e+10   9.107921e-01   8.052699e+06
   8.405530e+10   8.495309e-01   7.897766e+06
   8.530670e+10   7.911029e-01   7.743187e+06
   8.655809e+10   7.391689e-01   7.599731e+06
   8.780949e+10   6.854752e-01   7.444541e+06
   8.906088e+10   6.425837e-01   7.315144e+06
   9.031228e+10   5.935914e-01   7.160019e+06
   9.156367e+10   5.583646e-01   7.043625e+06
   9.281507e+10   5.204821e-01   6.912626e+06
   9.406647e+10   4.851119e-01   6.784612e+06
   9.531786e+10   4.520971e-01   6.659501e+06
   9.656925e+10   4.212911e-01   6.537207e+06
   9.782065e+10   3.925889e-01   6.417683e+06
   9.907205e+10   3.658906e-01   6.300891e+06
   1.003234e+11   3.409904e-01   6.186635e+06
   1.015748e+11   3.177735e-01   6.074814e+06
   1.028262e+11   2.961310e-01   5.965360e+06
   1.040776e+11   2.759571e-01   5.858186e+06
   1.053290e+11   2.572146e-01   5.753319e+06
   1.065804e+11   2.397528e-01   5.650610e+06
   1.078318e+11   2.234740e-01   5.549975e+06
   1.090832e+11   2.083032e-01   5.451368e+06
   1.103346e+11   1.941632e-01   5.354714e+06
   1.115860e+11   1.810007e-01   5.259993e+06
   1.128374e+11   1.687635e-01   5.167173e+06
   1.140888e+11   1.573559e-01   5.076105e+06
   1.153402e+11   1.467234e-01   4.986724e+06
   1.165916e+11   1.368135e-01   4.898955e+06
   1.178430e+11   1.275749e-01   4.812714e+06
   1.190944e+11   1.189901e-01   4.728013e+06
   1.203458e+11   1.109930e-01   4.644734e+06
   1.215972e+11   1.035372e-01   4.562809e+06
   1.228486e+11   9.658447e-02   4.482195e+06
   1.241000e+11   9.009958e-02   4.402866e+06
   1.253514e+11   8.405614e-02   4.324808e+06
   1.266027e+11   7.843567e-02   4.248023e+06
   1.278541e+11   7.319079e-02   4.172411e+06
   1.291055e+11   6.829631e-02   4.097939e+06
   1.303569e+11   6.372904e-02   4.024557e+06
   1.316083e+11   5.946726e-02   3.952201e+06
   1.328597e+11   5.549511e-02   3.880818e+06
   1.341111e+11   5.179586e-02   3.810358e+06
   1.353625e+11   4.834339e-02   3.740723e+06
   1.366139e+11   4.512165e-02   3.671839e+06
   1.378653e+11   4.211509e-02   3.603641e+06
   1.391167e+11   3.930922e-02   3.536063e+06
   1.403681e+11   3.669076e-02   3.469035e+06
   1.416195e+11   3.424902e-02   3.402501e+06
   1.428709e+11   3.197368e-02   3.336414e+06
   1.441223e+11   2.984922e-02   3.270730e+06
   1.453737e+11   2.786478e-02   3.205436e+06
   1.466251e+11   2.601067e-02   3.140553e+06
   1.478765e+11   2.427782e-02   3.076114e+06
   1.491279e+11   2.265763e-02   3.012160e+06
   1.503793e+11   2.114200e-02   2.948723e+06
   1.516307e+11   1.972373e-02   2.885815e+06
   1.528820e+11   1.839623e-02   2.823432e+06
   1.541334e+11   1.715370e-02   2.761552e+06
   1.553848e+11   1.599092e-02   2.700142e+06
   1.566362e+11   1.490254e-02   2.639186e+06
   1.578876e+11   1.388336e-02   2.578693e+06
   1.591390e+11   1.292866e-02   2.518712e+06
   1.603904e+11   1.203365e-02   2.459314e+06
   1.616418e+11   1.119453e-02   2.400610e+06
   1.628932e+11   1.040838e-02   2.342704e+06
   1.641446e+11   9.670429e-03   2.285667e+06
   1.653960e+11   8.977510e-03   2.229546e+06
   1.666474e+11   8.326320e-03   2.174349e+06
   1.678988e+11   7.716671e-03   2.120210e+06
   1.691502e+11   7.145078e-03   2.067089e+06
   1.704016e+11   6.608658e-03   2.014955e+06
   1.716530e+11   6.107053e-03   1.963830e+06
   1.729044e+11   5.637541e-03   1.913659e+06
   1.741558e+11   5.198328e-03   1.864412e+06
   1.754072e+11   4.788420e-03   1.816098e+06
   1.766586e+11   4.405374e-03   1.768690e+06
   1.779100e+11   4.048384e-03   1.722229e+06
   1.791613e+11   3.715501e-03   1.676710e+06
   1.804128e+11   3.405327e-03   1.632118e+06
   1.816642e+11   3.117210e-03   1.588445e+06
   1.829155e+11   2.849317e-03   1.545605e+06
   1.841669e+11   2.600755e-03   1.503535e+06
   1.854183e+11   2.370965e-03   1.462196e+06
   1.866697e+11   2.158289e-03   1.421511e+06
   1.879211e+11   1.961746e-03   1.381455e+06
   1.891725e+11   1.780421e-03   1.342013e+06
   1.904239e+11   1.613235e-03   1.303148e+06
   1.916753e+11   1.459342e-03   1.264869e+06
   1.929267e+11   1.317793e-03   1.227189e+06
   1.941781e+11   1.187777e-03   1.190119e+06
   1.954295e+11   1.068475e-03   1.153671e+06
   1.966809e+11   9.591867e-04   1.117836e+06
   1.979323e+11   8.592072e-04   1.082599e+06
   1.991837e+11   7.678982e-04   1.047948e+06
   2.004351e+11   6.846230e-04   1.013907e+06
   2.016865e+11   6.087829e-04   9.805430e+05
   2.029379e+11   5.398948e-04   9.479645e+05
   2.041893e+11   4.773541e-04   9.162072e+05
   2.054407e+11   4.207259e-04   8.852570e+05
   2.066921e+11   3.696229e-04   8.550700e+05
   2.079435e+11   3.236854e-04   8.256263e+05
   2.091948e+11   2.825242e-04   7.969309e+05
   2.104462e+11   2.436840e-04   7.672694e+05
   2.116976e+11   2.103450e-04   7.392128e+05
   2.129490e+11   1.829345e-04   7.138389e+05
   2.142004e+11   1.581813e-04   6.886074e+05
   2.154518e+11   1.356573e-04   6.630207e+05
   2.167032e+11   1.139316e-04   6.353015e+05
   2.179546e+11   9.672857e-05   6.105462e+05
   2.192060e+11   8.251990e-05   5.875218e+05
   2.204574e+11   6.867104e-05   5.619890e+05
   2.217088e+11   5.684904e-05   5.369117e+05
   2.229602e+11   4.767157e-05   5.145099e+05
   2.242116e+11   3.913476e-05   4.903135e+05
   2.254630e+11   3.250731e-05   4.685079e+05
   2.267144e+11   2.631782e-05   4.445496e+05
   2.279658e+11   2.113614e-05   4.206993e+05
   2.292172e+11   1.692752e-05   3.976964e+05
   2.304686e+11   1.357111e-05   3.760007e+05
   2.317200e+11   1.057295e-05   3.529783e+05
   2.329714e+11   8.187062e-06   3.309568e+05
   2.342228e+11   6.343564e-06   3.103150e+05
   2.354741e+11   4.757714e-06   2.882221e+05
   2.367255e+11   3.542743e-06   2.663649e+05
   2.379769e+11   2.595468e-06   2.433563e+05
   2.392283e+11   1.880603e-06   2.187562e+05
   2.404797e+11   1.328023e-06   1.908925e+05
   2.417311e+11   9.125199e-07   1.620392e+05
   2.429825e+11   5.691850e-07   1.339334e+05
   2.442339e+11   3.134242e-07   1.087600e+05
   2.454853e+11   1.447740e-07   8.525742e+04
   2.467367e+11   5.331856e-08   6.436504e+04
   2.479881e+11   1.472920e-08   3.997786e+04
   2.492395e+11   6.686504e-10   1.528163e+04
